AI-2020~FI-2005  
  FreqPeriod(min) 	 Unc_UB 	 Bode 	 Unc_LB 	 S/N_Ratio
1.000000e+03 	 4.195124e-01 	 3.584082e-01 	  2.973040e-01 	 1.363080e+00
9.000254e+02 	 4.194315e-01 	 3.583274e-01 	  2.972232e-01 	 1.438437e+00
8.100456e+02 	 4.193310e-01 	 3.582268e-01 	  2.971226e-01 	 1.512667e+00
7.290616e+02 	 4.192057e-01 	 3.581016e-01 	  2.969974e-01 	 1.584369e+00
6.561739e+02 	 4.190494e-01 	 3.579452e-01 	  2.968411e-01 	 1.652234e+00
5.905732e+02 	 4.188538e-01 	 3.577497e-01 	  2.966455e-01 	 1.715123e+00
5.315308e+02 	 4.186086e-01 	 3.575045e-01 	  2.964003e-01 	 1.772121e+00
4.783912e+02 	 4.183002e-01 	 3.571961e-01 	  2.960919e-01 	 1.822560e+00
4.305642e+02 	 4.179111e-01 	 3.568069e-01 	  2.957028e-01 	 1.866002e+00
3.875187e+02 	 4.174184e-01 	 3.563142e-01 	  2.952100e-01 	 1.902205e+00
3.487767e+02 	 4.167922e-01 	 3.556880e-01 	  2.945838e-01 	 1.931061e+00
3.139079e+02 	 4.151858e-01 	 3.548891e-01 	  2.945925e-01 	 1.952527e+00
2.825250e+02 	 4.135606e-01 	 3.538664e-01 	  2.941722e-01 	 1.966550e+00
2.542797e+02 	 4.118314e-01 	 3.525533e-01 	  2.932752e-01 	 1.973005e+00
2.288582e+02 	 4.098990e-01 	 3.508640e-01 	  2.918290e-01 	 1.971638e+00
2.059782e+02 	 4.076466e-01 	 3.486900e-01 	  2.897334e-01 	 1.962027e+00
1.853856e+02 	 4.049377e-01 	 3.458978e-01 	  2.868579e-01 	 1.943568e+00
1.668517e+02 	 4.016168e-01 	 3.423297e-01 	  2.830426e-01 	 1.915499e+00
1.501708e+02 	 3.975172e-01 	 3.378120e-01 	  2.781069e-01 	 1.876986e+00
1.351575e+02 	 3.924803e-01 	 3.321747e-01 	  2.718691e-01 	 1.827286e+00
1.216452e+02 	 3.863925e-01 	 3.252883e-01 	  2.641840e-01 	 1.766017e+00
1.094837e+02 	 3.792412e-01 	 3.171212e-01 	  2.550013e-01 	 1.693526e+00
9.853815e+01 	 3.711842e-01 	 3.078107e-01 	  2.444373e-01 	 1.611291e+00
8.868683e+01 	 3.626019e-01 	 2.977170e-01 	  2.328322e-01 	 1.522153e+00
7.982040e+01 	 3.540675e-01 	 2.873976e-01 	  2.207276e-01 	 1.430048e+00
7.184038e+01 	 3.461521e-01 	 2.774170e-01 	  2.086818e-01 	 1.338912e+00
6.465817e+01 	 3.390440e-01 	 2.679747e-01 	  1.969054e-01 	 1.250862e+00
5.819399e+01 	 3.321691e-01 	 2.585356e-01 	  1.849020e-01 	 1.164776e+00
5.237607e+01 	 3.241978e-01 	 2.478495e-01 	  1.715012e-01 	 1.076927e+00
4.713979e+01 	 3.136272e-01 	 2.345474e-01 	  1.554675e-01 	 9.839260e-01
4.242700e+01 	 2.994691e-01 	 2.178387e-01 	  1.362082e-01 	 8.852794e-01
3.818538e+01 	 2.813328e-01 	 1.975910e-01 	  1.138493e-01 	 7.827499e-01
3.436781e+01 	 2.593572e-01 	 1.742374e-01 	  8.911749e-02 	 6.790598e-01
3.093190e+01 	 2.349343e-01 	 1.494448e-01 	  6.395524e-02 	 5.799166e-01
2.783950e+01 	 2.101600e-01 	 1.254950e-01 	  4.082994e-02 	 4.917224e-01
2.505625e+01 	 1.861407e-01 	 1.035308e-01 	  2.092080e-02 	 4.157523e-01
2.255126e+01 	 1.646600e-01 	 8.520887e-02 	  5.757787e-03 	 3.557809e-01
2.029671e+01 	 1.461811e-01 	 7.074430e-02 	  0.000000e+00 	 3.111042e-01
1.826755e+01 	 1.302660e-01 	 5.940467e-02 	  0.000000e+00 	 2.781050e-01
1.644126e+01 	 1.157113e-01 	 4.972211e-02 	  0.000000e+00 	 2.499622e-01
1.479755e+01 	 1.019434e-01 	 4.094570e-02 	  0.000000e+00 	 2.226859e-01
1.331817e+01 	 8.911832e-02 	 3.318767e-02 	  0.000000e+00 	 1.968451e-01
1.198669e+01 	 7.722155e-02 	 2.658744e-02 	  0.000000e+00 	 1.741932e-01
1.078833e+01 	 6.563729e-02 	 2.099904e-02 	  0.000000e+00 	 1.560594e-01
9.709767e+00 	 5.330323e-02 	 1.625069e-02 	  0.000000e+00 	 1.454962e-01
8.739037e+00 	 3.940008e-02 	 1.232329e-02 	  0.000000e+00 	 1.509828e-01
7.865355e+00 	 2.538494e-02 	 9.289206e-03 	  0.000000e+00 	 1.914545e-01
7.079019e+00 	 1.550735e-02 	 6.945228e-03 	  0.000000e+00 	 2.690934e-01
6.371296e+00 	 1.177932e-02 	 5.069698e-03 	  0.000000e+00 	 2.506579e-01
5.734328e+00 	 9.679734e-03 	 3.880645e-03 	  0.000000e+00 	 2.219943e-01
5.161041e+00 	 6.827539e-03 	 2.706549e-03 	  0.000000e+00 	 2.178773e-01
4.645068e+00 	 6.331712e-03 	 2.236267e-03 	  0.000000e+00 	 1.811424e-01
4.180679e+00 	 5.704606e-03 	 1.989813e-03 	  0.000000e+00 	 1.776950e-01
3.762717e+00 	 5.559445e-03 	 1.512445e-03 	  0.000000e+00 	 1.239779e-01
3.386540e+00 	 5.120759e-03 	 1.298977e-03 	  0.000000e+00 	 1.127544e-01
3.047972e+00 	 7.631663e-03 	 1.157637e-03 	  0.000000e+00 	 5.931925e-02
2.743252e+00 	 1.237418e-02 	 1.112144e-03 	  0.000000e+00 	 3.275982e-02
2.468997e+00 	 3.672096e-02 	 1.071607e-03 	  0.000000e+00 	 9.971986e-03
2.222160e+00 	 4.642832e-02 	 1.030264e-03 	  0.000000e+00 	 7.528510e-03
2.000000e+00 	 4.642832e-02 	 1.030264e-03 	  0.000000e+00 	 0.000000e+00
 
AI-2020~FIC-2001  
  FreqPeriod(min) 	 Unc_UB 	 Bode 	 Unc_LB 	 S/N_Ratio
1.000000e+03 	 4.978956e-01 	 4.312549e-01 	  3.646143e-01 	 1.422615e+00
9.000254e+02 	 4.973350e-01 	 4.306943e-01 	  3.640537e-01 	 1.507088e+00
8.100456e+02 	 4.966431e-01 	 4.300025e-01 	  3.633618e-01 	 1.591122e+00
7.290616e+02 	 4.957894e-01 	 4.291487e-01 	  3.625080e-01 	 1.673016e+00
6.561739e+02 	 4.947359e-01 	 4.280952e-01 	  3.614545e-01 	 1.751065e+00
5.905732e+02 	 4.934361e-01 	 4.267955e-01 	  3.601548e-01 	 1.823650e+00
5.315308e+02 	 4.918329e-01 	 4.251922e-01 	  3.585515e-01 	 1.889319e+00
4.783912e+02 	 4.898556e-01 	 4.232149e-01 	  3.565743e-01 	 1.946832e+00
4.305642e+02 	 4.874179e-01 	 4.207772e-01 	  3.541366e-01 	 1.995179e+00
3.875187e+02 	 4.844137e-01 	 4.177731e-01 	  3.511324e-01 	 2.033548e+00
3.487767e+02 	 4.807135e-01 	 4.140728e-01 	  3.474322e-01 	 2.061271e+00
3.139079e+02 	 4.749040e-01 	 4.095188e-01 	  3.441335e-01 	 2.077744e+00
2.825250e+02 	 4.682688e-01 	 4.039197e-01 	  3.395706e-01 	 2.082335e+00
2.542797e+02 	 4.605451e-01 	 3.970460e-01 	  3.335470e-01 	 2.074298e+00
2.288582e+02 	 4.514314e-01 	 3.886251e-01 	  3.258187e-01 	 2.052698e+00
2.059782e+02 	 4.405848e-01 	 3.783388e-01 	  3.160927e-01 	 2.016354e+00
1.853856e+02 	 4.276236e-01 	 3.658266e-01 	  3.040296e-01 	 1.963838e+00
1.668517e+02 	 4.121400e-01 	 3.506986e-01 	  2.892571e-01 	 1.893522e+00
1.501708e+02 	 3.937317e-01 	 3.325674e-01 	  2.714031e-01 	 1.803762e+00
1.351575e+02 	 3.720682e-01 	 3.111153e-01 	  2.501624e-01 	 1.693264e+00
1.216452e+02 	 3.470152e-01 	 2.862193e-01 	  2.254234e-01 	 1.561789e+00
1.094837e+02 	 3.188560e-01 	 2.581731e-01 	  1.974901e-01 	 1.411374e+00
9.853815e+01 	 2.886545e-01 	 2.280512e-01 	  1.674479e-01 	 1.248342e+00
8.868683e+01 	 2.587682e-01 	 1.982235e-01 	  1.376787e-01 	 1.086116e+00
7.982040e+01 	 2.332415e-01 	 1.727500e-01 	  1.122585e-01 	 9.473734e-01
7.184038e+01 	 2.169221e-01 	 1.565000e-01 	  9.607793e-02 	 8.592439e-01
6.465817e+01 	 2.117274e-01 	 1.514215e-01 	  9.111569e-02 	 8.329635e-01
5.819399e+01 	 2.131599e-01 	 1.530603e-01 	  9.296062e-02 	 8.448668e-01
5.237607e+01 	 2.139708e-01 	 1.542268e-01 	  9.448275e-02 	 8.563733e-01
4.713979e+01 	 2.127144e-01 	 1.535533e-01 	  9.439224e-02 	 8.610351e-01
4.242700e+01 	 2.177010e-01 	 1.594441e-01 	  1.011873e-01 	 9.079442e-01
3.818538e+01 	 2.334571e-01 	 1.765255e-01 	  1.195939e-01 	 1.028613e+00
3.436781e+01 	 2.430998e-01 	 1.879988e-01 	  1.328979e-01 	 1.131863e+00
3.093190e+01 	 2.270534e-01 	 1.743271e-01 	  1.216008e-01 	 1.096820e+00
2.783950e+01 	 1.991177e-01 	 1.492737e-01 	  9.942977e-02 	 9.935018e-01
2.505625e+01 	 1.903171e-01 	 1.437406e-01 	  9.716404e-02 	 1.023788e+00
2.255126e+01 	 1.826002e-01 	 1.394822e-01 	  9.636434e-02 	 1.073146e+00
2.029671e+01 	 1.661308e-01 	 1.264338e-01 	  8.673673e-02 	 1.056580e+00
1.826755e+01 	 1.631131e-01 	 1.265717e-01 	  9.003035e-02 	 1.149078e+00
1.644126e+01 	 1.532161e-01 	 1.193587e-01 	  8.550126e-02 	 1.169494e+00
1.479755e+01 	 1.334110e-01 	 1.015772e-01 	  6.974343e-02 	 1.058536e+00
1.331817e+01 	 1.347617e-01 	 1.041061e-01 	  7.345056e-02 	 1.126587e+00
1.198669e+01 	 1.241156e-01 	 9.361032e-02 	  6.310499e-02 	 1.017995e+00
1.078833e+01 	 1.053216e-01 	 7.383467e-02 	  4.234779e-02 	 7.779082e-01
9.709767e+00 	 9.299275e-02 	 5.966076e-02 	  2.632876e-02 	 5.937795e-01
8.739037e+00 	 9.608518e-02 	 6.120352e-02 	  2.632186e-02 	 5.820724e-01
7.865355e+00 	 8.381208e-02 	 4.925117e-02 	  1.469027e-02 	 4.727474e-01
7.079019e+00 	 7.187670e-02 	 3.908593e-02 	  6.295168e-03 	 3.954273e-01
6.371296e+00 	 6.735535e-02 	 3.557648e-02 	  3.797618e-03 	 3.713833e-01
5.734328e+00 	 6.842436e-02 	 3.601574e-02 	  3.607127e-03 	 3.686630e-01
5.161041e+00 	 6.462208e-02 	 3.151539e-02 	  0.000000e+00 	 3.157944e-01
4.645068e+00 	 6.071879e-02 	 2.721383e-02 	  0.000000e+00 	 2.694501e-01
4.180679e+00 	 6.021678e-02 	 2.408645e-02 	  0.000000e+00 	 2.211559e-01
3.762717e+00 	 5.849909e-02 	 2.260000e-02 	  0.000000e+00 	 2.088444e-01
3.386540e+00 	 5.111383e-02 	 1.761464e-02 	  0.000000e+00 	 1.744364e-01
3.047972e+00 	 4.898584e-02 	 1.332527e-02 	  0.000000e+00 	 1.239611e-01
2.743252e+00 	 4.570217e-02 	 1.290068e-02 	  0.000000e+00 	 1.304718e-01
2.468997e+00 	 4.782791e-02 	 1.354029e-02 	  0.000000e+00 	 1.310051e-01
2.222160e+00 	 4.774646e-02 	 1.298881e-02 	  0.000000e+00 	 1.239700e-01
2.000000e+00 	 4.774646e-02 	 1.298881e-02 	  0.000000e+00 	 0.000000e+00
 
AI-2020~FIC-2002  
  FreqPeriod(min) 	 Unc_UB 	 Bode 	 Unc_LB 	 S/N_Ratio
1.000000e+03 	 2.526931e-01 	 1.471149e-01 	  4.153678e-02 	 2.850773e-01
9.000254e+02 	 2.529385e-01 	 1.473603e-01 	  4.178216e-02 	 3.049069e-01
8.100456e+02 	 2.532388e-01 	 1.476606e-01 	  4.208247e-02 	 3.253870e-01
7.290616e+02 	 2.536056e-01 	 1.480274e-01 	  4.244927e-02 	 3.462547e-01
6.561739e+02 	 2.540524e-01 	 1.484743e-01 	  4.289612e-02 	 3.672342e-01
5.905732e+02 	 2.545950e-01 	 1.490169e-01 	  4.343872e-02 	 3.880566e-01
5.315308e+02 	 2.552512e-01 	 1.496731e-01 	  4.409492e-02 	 4.084830e-01
4.783912e+02 	 2.560408e-01 	 1.504626e-01 	  4.488446e-02 	 4.283232e-01
4.305642e+02 	 2.569846e-01 	 1.514064e-01 	  4.582827e-02 	 4.474498e-01
3.875187e+02 	 2.581035e-01 	 1.525253e-01 	  4.694719e-02 	 4.658017e-01
3.487767e+02 	 2.594159e-01 	 1.538377e-01 	  4.825954e-02 	 4.833775e-01
3.139079e+02 	 2.583864e-01 	 1.553555e-01 	  5.232460e-02 	 5.002152e-01
2.825250e+02 	 2.579948e-01 	 1.570785e-01 	  5.616206e-02 	 5.163600e-01
2.542797e+02 	 2.581572e-01 	 1.589850e-01 	  5.981273e-02 	 5.318188e-01
2.288582e+02 	 2.587626e-01 	 1.610195e-01 	  6.327646e-02 	 5.465001e-01
2.059782e+02 	 2.596568e-01 	 1.630760e-01 	  6.649531e-02 	 5.601410e-01
1.853856e+02 	 2.606205e-01 	 1.649769e-01 	  6.933331e-02 	 5.722225e-01
1.668517e+02 	 2.613485e-01 	 1.664522e-01 	  7.155576e-02 	 5.818853e-01
1.501708e+02 	 2.614348e-01 	 1.671257e-01 	  7.281660e-02 	 5.878781e-01
1.351575e+02 	 2.603865e-01 	 1.665301e-01 	  7.267374e-02 	 5.886088e-01
1.216452e+02 	 2.577060e-01 	 1.641898e-01 	  7.067374e-02 	 5.824486e-01
1.094837e+02 	 2.531209e-01 	 1.598525e-01 	  6.658402e-02 	 5.685678e-01
9.853815e+01 	 2.470817e-01 	 1.539878e-01 	  6.089386e-02 	 5.487350e-01
8.868683e+01 	 2.415975e-01 	 1.486262e-01 	  5.565490e-02 	 5.303275e-01
7.982040e+01 	 2.409129e-01 	 1.480382e-01 	  5.516348e-02 	 5.287787e-01
7.184038e+01 	 2.500139e-01 	 1.572441e-01 	  6.447435e-02 	 5.622968e-01
6.465817e+01 	 2.695690e-01 	 1.769604e-01 	  8.435180e-02 	 6.339025e-01
5.819399e+01 	 2.922715e-01 	 1.999476e-01 	  1.076236e-01 	 7.184549e-01
5.237607e+01 	 3.053837e-01 	 2.135604e-01 	  1.217372e-01 	 7.715530e-01
4.713979e+01 	 2.975166e-01 	 2.065314e-01 	  1.155462e-01 	 7.530313e-01
4.242700e+01 	 2.691541e-01 	 1.794916e-01 	  8.982911e-02 	 6.640963e-01
3.818538e+01 	 2.424495e-01 	 1.547521e-01 	  6.705464e-02 	 5.853927e-01
3.436781e+01 	 2.358293e-01 	 1.508749e-01 	  6.592044e-02 	 5.891537e-01
3.093190e+01 	 2.210441e-01 	 1.396773e-01 	  5.831038e-02 	 5.694764e-01
2.783950e+01 	 1.844924e-01 	 1.075096e-01 	  3.052679e-02 	 4.632882e-01
2.505625e+01 	 1.625274e-01 	 9.054284e-02 	  1.855832e-02 	 4.172657e-01
2.255126e+01 	 1.588290e-01 	 9.216263e-02 	  2.549628e-02 	 4.586125e-01
2.029671e+01 	 1.582252e-01 	 9.684499e-02 	  3.546474e-02 	 5.234151e-01
1.826755e+01 	 1.418830e-01 	 8.540338e-02 	  2.892378e-02 	 5.016273e-01
1.644126e+01 	 1.168255e-01 	 6.453581e-02 	  1.224616e-02 	 4.094329e-01
1.479755e+01 	 1.112412e-01 	 6.212952e-02 	  1.301780e-02 	 4.196725e-01
1.331817e+01 	 1.026877e-01 	 5.544193e-02 	  8.196163e-03 	 3.892899e-01
1.198669e+01 	 8.304493e-02 	 3.605479e-02 	  0.000000e+00 	 2.545388e-01
1.078833e+01 	 7.733038e-02 	 2.881205e-02 	  0.000000e+00 	 1.969999e-01
9.709767e+00 	 6.481281e-02 	 1.339872e-02 	  0.000000e+00 	 8.645276e-02
8.739037e+00 	 7.967809e-02 	 2.582239e-02 	  0.000000e+00 	 1.590605e-01
7.865355e+00 	 8.140883e-02 	 2.804662e-02 	  0.000000e+00 	 1.743591e-01
7.079019e+00 	 7.836650e-02 	 2.778119e-02 	  0.000000e+00 	 1.821898e-01
6.371296e+00 	 7.435352e-02 	 2.535142e-02 	  0.000000e+00 	 1.716269e-01
5.734328e+00 	 7.232817e-02 	 2.231499e-02 	  0.000000e+00 	 1.480164e-01
5.161041e+00 	 7.032449e-02 	 1.921289e-02 	  0.000000e+00 	 1.247013e-01
4.645068e+00 	 6.879007e-02 	 1.711119e-02 	  0.000000e+00 	 1.098411e-01
4.180679e+00 	 6.794481e-02 	 1.219984e-02 	  0.000000e+00 	 7.260159e-02
3.762717e+00 	 6.892952e-02 	 1.351627e-02 	  0.000000e+00 	 8.091721e-02
3.386540e+00 	 6.147274e-02 	 9.806717e-03 	  0.000000e+00 	 6.296748e-02
3.047972e+00 	 5.820340e-02 	 3.157580e-03 	  0.000000e+00 	 1.902952e-02
2.743252e+00 	 5.799191e-02 	 7.403641e-03 	  0.000000e+00 	 4.855045e-02
2.468997e+00 	 6.175310e-02 	 8.778212e-03 	  0.000000e+00 	 5.497102e-02
2.222160e+00 	 6.145214e-02 	 8.014495e-03 	  0.000000e+00 	 4.975383e-02
2.000000e+00 	 6.145214e-02 	 8.014495e-03 	  0.000000e+00 	 0.000000e+00
 
AI-2020~FIC-2004  
  FreqPeriod(min) 	 Unc_UB 	 Bode 	 Unc_LB 	 S/N_Ratio
1.000000e+03 	 5.452447e-01 	 4.872278e-01 	  4.292109e-01 	 2.413459e+00
9.000254e+02 	 5.449068e-01 	 4.868899e-01 	  4.288730e-01 	 2.473787e+00
8.100456e+02 	 5.444879e-01 	 4.864710e-01 	  4.284541e-01 	 2.527859e+00
7.290616e+02 	 5.439679e-01 	 4.859510e-01 	  4.279341e-01 	 2.575289e+00
6.561739e+02 	 5.433219e-01 	 4.853050e-01 	  4.272880e-01 	 2.615933e+00
5.905732e+02 	 5.425181e-01 	 4.845011e-01 	  4.264842e-01 	 2.649832e+00
5.315308e+02 	 5.415164e-01 	 4.834995e-01 	  4.254826e-01 	 2.677135e+00
4.783912e+02 	 5.402660e-01 	 4.822491e-01 	  4.242322e-01 	 2.698030e+00
4.305642e+02 	 5.387019e-01 	 4.806850e-01 	  4.226680e-01 	 2.712670e+00
3.875187e+02 	 5.367409e-01 	 4.787240e-01 	  4.207071e-01 	 2.721109e+00
3.487767e+02 	 5.342766e-01 	 4.762596e-01 	  4.182427e-01 	 2.723246e+00
3.139079e+02 	 5.308888e-01 	 4.731551e-01 	  4.154213e-01 	 2.718765e+00
2.825250e+02 	 5.267374e-01 	 4.692348e-01 	  4.117322e-01 	 2.707076e+00
2.542797e+02 	 5.215893e-01 	 4.642748e-01 	  4.069604e-01 	 2.687254e+00
2.288582e+02 	 5.151535e-01 	 4.579919e-01 	  4.008302e-01 	 2.657976e+00
2.059782e+02 	 5.070711e-01 	 4.500335e-01 	  3.929959e-01 	 2.617468e+00
1.853856e+02 	 4.969101e-01 	 4.399733e-01 	  3.830365e-01 	 2.563486e+00
1.668517e+02 	 4.841734e-01 	 4.273189e-01 	  3.704645e-01 	 2.493364e+00
1.501708e+02 	 4.683333e-01 	 4.115473e-01 	  3.547614e-01 	 2.404234e+00
1.351575e+02 	 4.489172e-01 	 3.921902e-01 	  3.354632e-01 	 2.293532e+00
1.216452e+02 	 4.256801e-01 	 3.690073e-01 	  3.123345e-01 	 2.160021e+00
1.094837e+02 	 3.989089e-01 	 3.422912e-01 	  2.856735e-01 	 2.005585e+00
9.853815e+01 	 3.698844e-01 	 3.133300e-01 	  2.567756e-01 	 1.837949e+00
8.868683e+01 	 3.413875e-01 	 2.849147e-01 	  2.284419e-01 	 1.673683e+00
7.982040e+01 	 3.176900e-01 	 2.613313e-01 	  2.049727e-01 	 1.538256e+00
7.184038e+01 	 3.027803e-01 	 2.465887e-01 	  1.903971e-01 	 1.455792e+00
6.465817e+01 	 2.964183e-01 	 2.404755e-01 	  1.845326e-01 	 1.426015e+00
5.819399e+01 	 2.918307e-01 	 2.362584e-01 	  1.806862e-01 	 1.410350e+00
5.237607e+01 	 2.799082e-01 	 2.248819e-01 	  1.698557e-01 	 1.355758e+00
4.713979e+01 	 2.585483e-01 	 2.043111e-01 	  1.500739e-01 	 1.249661e+00
4.242700e+01 	 2.401548e-01 	 1.870276e-01 	  1.339004e-01 	 1.167849e+00
3.818538e+01 	 2.388114e-01 	 1.871924e-01 	  1.355734e-01 	 1.203030e+00
3.436781e+01 	 2.402676e-01 	 1.906110e-01 	  1.409544e-01 	 1.273411e+00
3.093190e+01 	 2.227826e-01 	 1.755510e-01 	  1.283194e-01 	 1.233015e+00
2.783950e+01 	 1.983356e-01 	 1.539298e-01 	  1.095240e-01 	 1.149955e+00
2.505625e+01 	 1.863213e-01 	 1.450050e-01 	  1.036887e-01 	 1.164285e+00
2.255126e+01 	 1.689607e-01 	 1.308054e-01 	  9.265011e-02 	 1.137283e+00
2.029671e+01 	 1.443475e-01 	 1.092145e-01 	  7.408154e-02 	 1.031248e+00
1.826755e+01 	 1.472425e-01 	 1.147998e-01 	  8.235710e-02 	 1.173875e+00
1.644126e+01 	 1.543218e-01 	 1.240780e-01 	  9.383421e-02 	 1.360994e+00
1.479755e+01 	 1.442988e-01 	 1.156337e-01 	  8.696864e-02 	 1.338226e+00
1.331817e+01 	 1.261399e-01 	 9.831948e-02 	  7.049903e-02 	 1.172393e+00
1.198669e+01 	 1.044661e-01 	 7.664784e-02 	  4.882962e-02 	 9.140466e-01
1.078833e+01 	 9.884457e-02 	 7.013092e-02 	  4.141726e-02 	 8.102495e-01
9.709767e+00 	 9.723800e-02 	 6.695002e-02 	  3.666205e-02 	 7.332942e-01
8.739037e+00 	 8.427042e-02 	 5.264447e-02 	  2.101853e-02 	 5.522135e-01
7.865355e+00 	 7.822121e-02 	 4.675153e-02 	  1.528185e-02 	 4.928346e-01
7.079019e+00 	 7.396092e-02 	 4.381689e-02 	  1.367286e-02 	 4.822120e-01
6.371296e+00 	 6.982115e-02 	 4.045017e-02 	  1.107919e-02 	 4.568773e-01
5.734328e+00 	 6.213812e-02 	 3.229577e-02 	  2.453417e-03 	 3.590131e-01
5.161041e+00 	 6.436336e-02 	 3.392497e-02 	  3.486578e-03 	 3.697392e-01
4.645068e+00 	 5.909087e-02 	 2.812001e-02 	  0.000000e+00 	 3.012034e-01
4.180679e+00 	 6.142822e-02 	 2.817141e-02 	  0.000000e+00 	 2.810125e-01
3.762717e+00 	 5.850376e-02 	 2.556491e-02 	  0.000000e+00 	 2.574741e-01
3.386540e+00 	 4.942162e-02 	 1.850332e-02 	  0.000000e+00 	 1.985326e-01
3.047972e+00 	 4.560368e-02 	 1.282513e-02 	  0.000000e+00 	 1.297984e-01
2.743252e+00 	 4.355232e-02 	 1.346441e-02 	  0.000000e+00 	 1.484543e-01
2.468997e+00 	 4.626201e-02 	 1.548175e-02 	  0.000000e+00 	 1.668573e-01
2.222160e+00 	 4.592844e-02 	 1.489351e-02 	  0.000000e+00 	 1.592004e-01
2.000000e+00 	 4.592844e-02 	 1.489351e-02 	  0.000000e+00 	 0.000000e+00
 
AI-2020~TIC-2003  
  FreqPeriod(min) 	 Unc_UB 	 Bode 	 Unc_LB 	 S/N_Ratio
1.000000e+03 	 3.457325e-01 	 3.010712e-01 	  2.564099e-01 	 1.428994e+00
9.000254e+02 	 3.455279e-01 	 3.008666e-01 	  2.562052e-01 	 1.520016e+00
8.100456e+02 	 3.452751e-01 	 3.006138e-01 	  2.559525e-01 	 1.611936e+00
7.290616e+02 	 3.449629e-01 	 3.003016e-01 	  2.556402e-01 	 1.703083e+00
6.561739e+02 	 3.445772e-01 	 2.999159e-01 	  2.552546e-01 	 1.791723e+00
5.905732e+02 	 3.441007e-01 	 2.994394e-01 	  2.547781e-01 	 1.876164e+00
5.315308e+02 	 3.435121e-01 	 2.988508e-01 	  2.541895e-01 	 1.954851e+00
4.783912e+02 	 3.427849e-01 	 2.981236e-01 	  2.534622e-01 	 2.026449e+00
4.305642e+02 	 3.418864e-01 	 2.972251e-01 	  2.525638e-01 	 2.089888e+00
3.875187e+02 	 3.407766e-01 	 2.961153e-01 	  2.514539e-01 	 2.144369e+00
3.487767e+02 	 3.394060e-01 	 2.947447e-01 	  2.500834e-01 	 2.189335e+00
3.139079e+02 	 3.367581e-01 	 2.930533e-01 	  2.493485e-01 	 2.224410e+00
2.825250e+02 	 3.338813e-01 	 2.909681e-01 	  2.480549e-01 	 2.249327e+00
2.542797e+02 	 3.306640e-01 	 2.884020e-01 	  2.461400e-01 	 2.263842e+00
2.288582e+02 	 3.269828e-01 	 2.852529e-01 	  2.435231e-01 	 2.267675e+00
2.059782e+02 	 3.227034e-01 	 2.814051e-01 	  2.401068e-01 	 2.260465e+00
1.853856e+02 	 3.176851e-01 	 2.767338e-01 	  2.357824e-01 	 2.241772e+00
1.668517e+02 	 3.117925e-01 	 2.711168e-01 	  2.304411e-01 	 2.211155e+00
1.501708e+02 	 3.049156e-01 	 2.644557e-01 	  2.239957e-01 	 2.168330e+00
1.351575e+02 	 2.970049e-01 	 2.567105e-01 	  2.164160e-01 	 2.113470e+00
1.216452e+02 	 2.881199e-01 	 2.479491e-01 	  2.077782e-01 	 2.047620e+00
1.094837e+02 	 2.784829e-01 	 2.384015e-01 	  1.983201e-01 	 1.973166e+00
9.853815e+01 	 2.685060e-01 	 2.284874e-01 	  1.884688e-01 	 1.894081e+00
8.868683e+01 	 2.587258e-01 	 2.187521e-01 	  1.787785e-01 	 1.815416e+00
7.982040e+01 	 2.495699e-01 	 2.096339e-01 	  1.696980e-01 	 1.741386e+00
