AI-2020~FI-2005  
  FreqPeriod(min) 	 Unc_UB 	 Bode 	 Unc_LB 	 S/N_Ratio
1.000000e+03 	 4.116084e-01 	 3.605847e-01 	  3.095610e-01 	 1.375608e+00
9.000254e+02 	 4.114534e-01 	 3.604296e-01 	  3.094059e-01 	 1.450682e+00
8.100456e+02 	 4.112623e-01 	 3.602386e-01 	  3.092148e-01 	 1.524562e+00
7.290616e+02 	 4.110268e-01 	 3.600031e-01 	  3.089794e-01 	 1.595815e+00
6.561739e+02 	 4.107369e-01 	 3.597132e-01 	  3.086894e-01 	 1.663099e+00
5.905732e+02 	 4.103800e-01 	 3.593562e-01 	  3.083325e-01 	 1.725240e+00
5.315308e+02 	 4.099410e-01 	 3.589172e-01 	  3.078935e-01 	 1.781287e+00
4.783912e+02 	 4.094014e-01 	 3.583777e-01 	  3.073540e-01 	 1.830535e+00
4.305642e+02 	 4.087390e-01 	 3.577153e-01 	  3.066916e-01 	 1.872514e+00
3.875187e+02 	 4.079269e-01 	 3.569032e-01 	  3.058795e-01 	 1.906958e+00
3.487767e+02 	 4.069327e-01 	 3.559090e-01 	  3.048853e-01 	 1.933745e+00
3.139079e+02 	 4.057181e-01 	 3.546944e-01 	  3.036706e-01 	 1.952839e+00
2.825250e+02 	 4.042377e-01 	 3.532140e-01 	  3.021903e-01 	 1.964231e+00
2.542797e+02 	 4.024388e-01 	 3.514151e-01 	  3.003914e-01 	 1.967886e+00
2.288582e+02 	 4.000525e-01 	 3.492372e-01 	  2.984219e-01 	 1.963710e+00
2.059782e+02 	 3.973604e-01 	 3.466123e-01 	  2.958641e-01 	 1.951530e+00
1.853856e+02 	 3.942857e-01 	 3.434660e-01 	  2.926463e-01 	 1.931094e+00
1.668517e+02 	 3.907519e-01 	 3.397202e-01 	  2.886885e-01 	 1.902098e+00
1.501708e+02 	 3.866872e-01 	 3.352970e-01 	  2.839067e-01 	 1.864234e+00
1.351575e+02 	 3.820301e-01 	 3.301248e-01 	  2.782195e-01 	 1.817263e+00
1.216452e+02 	 3.767374e-01 	 3.241469e-01 	  2.715565e-01 	 1.761111e+00
1.094837e+02 	 3.707922e-01 	 3.173302e-01 	  2.638683e-01 	 1.695971e+00
9.853815e+01 	 3.642102e-01 	 3.096725e-01 	  2.551348e-01 	 1.622399e+00
8.868683e+01 	 3.570373e-01 	 3.012021e-01 	  2.453669e-01 	 1.541351e+00
7.982040e+01 	 3.493316e-01 	 2.919629e-01 	  2.345942e-01 	 1.454134e+00
7.184038e+01 	 3.411198e-01 	 2.819755e-01 	  2.228313e-01 	 1.362230e+00
6.465817e+01 	 3.323291e-01 	 2.711752e-01 	  2.100214e-01 	 1.267003e+00
5.819399e+01 	 3.227115e-01 	 2.593452e-01 	  1.959789e-01 	 1.169422e+00
5.237607e+01 	 3.118118e-01 	 2.460951e-01 	  1.803783e-01 	 1.069987e+00
4.713979e+01 	 2.990428e-01 	 2.309481e-01 	  1.628534e-01 	 9.690651e-01
4.242700e+01 	 2.838953e-01 	 2.135594e-01 	  1.432234e-01 	 8.675469e-01
3.818538e+01 	 2.661831e-01 	 1.939594e-01 	  1.217358e-01 	 7.673319e-01
3.436781e+01 	 2.461158e-01 	 1.726082e-01 	  9.910058e-02 	 6.709354e-01
3.093190e+01 	 2.241663e-01 	 1.502186e-01 	  7.627090e-02 	 5.804310e-01
2.783950e+01 	 2.011439e-01 	 1.277707e-01 	  5.439747e-02 	 4.975598e-01
2.505625e+01 	 1.785162e-01 	 1.067806e-01 	  3.504502e-02 	 4.253138e-01
2.255126e+01 	 1.576884e-01 	 8.856292e-02 	  1.943741e-02 	 3.660709e-01
2.029671e+01 	 1.390407e-01 	 7.329786e-02 	  7.555039e-03 	 3.185625e-01
1.826755e+01 	 1.228311e-01 	 6.099702e-02 	  0.000000e+00 	 2.818595e-01
1.644126e+01 	 1.082381e-01 	 5.061185e-02 	  0.000000e+00 	 2.509480e-01
1.479755e+01 	 9.485302e-02 	 4.157870e-02 	  0.000000e+00 	 2.229999e-01
1.331817e+01 	 8.236543e-02 	 3.354751e-02 	  0.000000e+00 	 1.963508e-01
1.198669e+01 	 7.089494e-02 	 2.677055e-02 	  0.000000e+00 	 1.733526e-01
1.078833e+01 	 5.987713e-02 	 2.108479e-02 	  0.000000e+00 	 1.553012e-01
9.709767e+00 	 4.837669e-02 	 1.629554e-02 	  0.000000e+00 	 1.451345e-01
8.739037e+00 	 3.573993e-02 	 1.236870e-02 	  0.000000e+00 	 1.512147e-01
7.865355e+00 	 2.324771e-02 	 9.358455e-03 	  0.000000e+00 	 1.925205e-01
7.079019e+00 	 1.437875e-02 	 6.979992e-03 	  0.000000e+00 	 2.695552e-01
6.371296e+00 	 1.091563e-02 	 5.121576e-03 	  0.000000e+00 	 2.525650e-01
5.734328e+00 	 8.861628e-03 	 3.871965e-03 	  0.000000e+00 	 2.217236e-01
5.161041e+00 	 6.233860e-03 	 2.693486e-03 	  0.000000e+00 	 2.173788e-01
4.645068e+00 	 5.754070e-03 	 2.222766e-03 	  0.000000e+00 	 1.798500e-01
4.180679e+00 	 5.208357e-03 	 2.004031e-03 	  0.000000e+00 	 1.786979e-01
3.762717e+00 	 4.982214e-03 	 1.502065e-03 	  0.000000e+00 	 1.233226e-01
3.386540e+00 	 4.591530e-03 	 1.303384e-03 	  0.000000e+00 	 1.132590e-01
3.047972e+00 	 6.708578e-03 	 1.165391e-03 	  0.000000e+00 	 6.007088e-02
2.743252e+00 	 1.082985e-02 	 1.108386e-03 	  0.000000e+00 	 3.257698e-02
2.468997e+00 	 3.170233e-02 	 1.084783e-03 	  0.000000e+00 	 1.012335e-02
2.222160e+00 	 4.019139e-02 	 1.035395e-03 	  0.000000e+00 	 7.555432e-03
2.000000e+00 	 4.019139e-02 	 1.035395e-03 	  0.000000e+00 	 0.000000e+00
 
AI-2020~FIC-2001  
  FreqPeriod(min) 	 Unc_UB 	 Bode 	 Unc_LB 	 S/N_Ratio
1.000000e+03 	 4.905824e-01 	 4.359255e-01 	  3.812685e-01 	 1.442480e+00
9.000254e+02 	 4.899282e-01 	 4.352713e-01 	  3.806144e-01 	 1.527111e+00
8.100456e+02 	 4.891219e-01 	 4.344649e-01 	  3.798080e-01 	 1.611227e+00
7.290616e+02 	 4.881282e-01 	 4.334712e-01 	  3.788143e-01 	 1.693085e+00
6.561739e+02 	 4.869042e-01 	 4.322472e-01 	  3.775903e-01 	 1.770928e+00
5.905732e+02 	 4.853973e-01 	 4.307404e-01 	  3.760834e-01 	 1.843087e+00
5.315308e+02 	 4.835434e-01 	 4.288864e-01 	  3.742295e-01 	 1.908051e+00
4.783912e+02 	 4.812643e-01 	 4.266074e-01 	  3.719504e-01 	 1.964526e+00
4.305642e+02 	 4.784654e-01 	 4.238085e-01 	  3.691516e-01 	 2.011445e+00
3.875187e+02 	 4.750325e-01 	 4.203756e-01 	  3.657187e-01 	 2.047943e+00
3.487767e+02 	 4.708285e-01 	 4.161716e-01 	  3.615147e-01 	 2.073309e+00
3.139079e+02 	 4.656903e-01 	 4.110334e-01 	  3.563764e-01 	 2.086907e+00
2.825250e+02 	 4.594257e-01 	 4.047687e-01 	  3.501118e-01 	 2.088101e+00
2.542797e+02 	 4.518113e-01 	 3.971544e-01 	  3.424975e-01 	 2.076184e+00
2.288582e+02 	 4.419975e-01 	 3.879359e-01 	  3.338743e-01 	 2.050325e+00
2.059782e+02 	 4.304105e-01 	 3.768309e-01 	  3.232513e-01 	 2.009548e+00
1.853856e+02 	 4.167323e-01 	 3.635394e-01 	  3.103465e-01 	 1.952763e+00
1.668517e+02 	 4.006497e-01 	 3.477637e-01 	  2.948776e-01 	 1.878861e+00
1.501708e+02 	 3.818914e-01 	 3.292452e-01 	  2.765989e-01 	 1.786914e+00
1.351575e+02 	 3.602901e-01 	 3.078276e-01 	  2.553652e-01 	 1.676527e+00
1.216452e+02 	 3.358838e-01 	 2.835587e-01 	  2.312336e-01 	 1.548406e+00
1.094837e+02 	 3.090729e-01 	 2.568477e-01 	  2.046225e-01 	 1.405230e+00
9.853815e+01 	 2.808454e-01 	 2.286916e-01 	  1.765379e-01 	 1.252899e+00
8.868683e+01 	 2.530478e-01 	 2.009474e-01 	  1.488469e-01 	 1.102027e+00
7.982040e+01 	 2.285373e-01 	 1.764851e-01 	  1.244329e-01 	 9.687698e-01
7.184038e+01 	 2.106907e-01 	 1.586996e-01 	  1.067085e-01 	 8.721641e-01
6.465817e+01 	 2.015997e-01 	 1.497076e-01 	  9.781554e-02 	 8.243173e-01
5.819399e+01 	 2.000014e-01 	 1.482819e-01 	  9.656232e-02 	 8.191906e-01
5.237607e+01 	 2.022623e-01 	 1.508377e-01 	  9.941319e-02 	 8.380908e-01
4.713979e+01 	 2.063998e-01 	 1.554570e-01 	  1.045141e-01 	 8.719239e-01
4.242700e+01 	 2.139585e-01 	 1.637622e-01 	  1.135659e-01 	 9.321659e-01
3.818538e+01 	 2.250358e-01 	 1.759348e-01 	  1.268338e-01 	 1.023794e+00
3.436781e+01 	 2.312373e-01 	 1.836534e-01 	  1.360695e-01 	 1.102784e+00
3.093190e+01 	 2.208754e-01 	 1.752676e-01 	  1.296598e-01 	 1.098029e+00
2.783950e+01 	 1.976070e-01 	 1.544108e-01 	  1.112145e-01 	 1.021370e+00
2.505625e+01 	 1.835714e-01 	 1.431260e-01 	  1.026806e-01 	 1.011116e+00
2.255126e+01 	 1.753030e-01 	 1.377887e-01 	  1.002745e-01 	 1.049468e+00
2.029671e+01 	 1.633331e-01 	 1.287373e-01 	  9.414149e-02 	 1.063243e+00
1.826755e+01 	 1.608390e-01 	 1.289528e-01 	  9.706661e-02 	 1.155526e+00
1.644126e+01 	 1.465710e-01 	 1.170045e-01 	  8.743789e-02 	 1.130715e+00
1.479755e+01 	 1.343727e-01 	 1.065696e-01 	  7.876657e-02 	 1.095197e+00
1.331817e+01 	 1.299392e-01 	 1.031821e-01 	  7.642503e-02 	 1.101837e+00
1.198669e+01 	 1.192592e-01 	 9.267573e-02 	  6.609229e-02 	 9.961080e-01
1.078833e+01 	 1.010850e-01 	 7.372165e-02 	  4.635835e-02 	 7.698004e-01
9.709767e+00 	 9.032424e-02 	 6.146445e-02 	  3.260465e-02 	 6.085306e-01
8.739037e+00 	 9.052659e-02 	 6.041862e-02 	  3.031064e-02 	 5.733779e-01
7.865355e+00 	 7.930813e-02 	 4.948500e-02 	  1.966187e-02 	 4.741022e-01
7.079019e+00 	 6.690325e-02 	 3.856786e-02 	  1.023247e-02 	 3.889090e-01
6.371296e+00 	 6.362379e-02 	 3.618138e-02 	  8.738967e-03 	 3.767164e-01
5.734328e+00 	 6.367258e-02 	 3.578750e-02 	  7.902422e-03 	 3.667002e-01
5.161041e+00 	 6.045494e-02 	 3.201271e-02 	  3.570487e-03 	 3.215959e-01
4.645068e+00 	 5.649769e-02 	 2.760799e-02 	  0.000000e+00 	 2.730508e-01
4.180679e+00 	 5.547396e-02 	 2.430847e-02 	  0.000000e+00 	 2.228617e-01
3.762717e+00 	 5.350851e-02 	 2.263769e-02 	  0.000000e+00 	 2.095250e-01
3.386540e+00 	 4.657326e-02 	 1.775155e-02 	  0.000000e+00 	 1.759821e-01
3.047972e+00 	 4.388891e-02 	 1.335563e-02 	  0.000000e+00 	 1.249806e-01
2.743252e+00 	 4.101202e-02 	 1.269756e-02 	  0.000000e+00 	 1.281338e-01
2.468997e+00 	 4.331848e-02 	 1.387046e-02 	  0.000000e+00 	 1.345818e-01
2.222160e+00 	 4.332723e-02 	 1.334862e-02 	  0.000000e+00 	 1.272262e-01
2.000000e+00 	 4.332723e-02 	 1.334862e-02 	  0.000000e+00 	 0.000000e+00
 
AI-2020~FIC-2002  
  FreqPeriod(min) 	 Unc_UB 	 Bode 	 Unc_LB 	 S/N_Ratio
1.000000e+03 	 2.460798e-01 	 1.607171e-01 	  7.535450e-02 	 3.124008e-01
9.000254e+02 	 2.461734e-01 	 1.608107e-01 	  7.544806e-02 	 3.336128e-01
8.100456e+02 	 2.462869e-01 	 1.609242e-01 	  7.556160e-02 	 3.554074e-01
7.290616e+02 	 2.464241e-01 	 1.610615e-01 	  7.569882e-02 	 3.774603e-01
6.561739e+02 	 2.465891e-01 	 1.612264e-01 	  7.586380e-02 	 3.994247e-01
5.905732e+02 	 2.467861e-01 	 1.614235e-01 	  7.606081e-02 	 4.209540e-01
5.315308e+02 	 2.470194e-01 	 1.616567e-01 	  7.629410e-02 	 4.417248e-01
4.783912e+02 	 2.472926e-01 	 1.619300e-01 	  7.656734e-02 	 4.614580e-01
4.305642e+02 	 2.476081e-01 	 1.622455e-01 	  7.688282e-02 	 4.799339e-01
3.875187e+02 	 2.479655e-01 	 1.626029e-01 	  7.724025e-02 	 4.969971e-01
3.487767e+02 	 2.483602e-01 	 1.629975e-01 	  7.763489e-02 	 5.125520e-01
3.139079e+02 	 2.487803e-01 	 1.634176e-01 	  7.805497e-02 	 5.265466e-01
2.825250e+02 	 2.492036e-01 	 1.638410e-01 	  7.847832e-02 	 5.389488e-01
2.542797e+02 	 2.495934e-01 	 1.642307e-01 	  7.886809e-02 	 5.497158e-01
2.288582e+02 	 2.486647e-01 	 1.645307e-01 	  8.039670e-02 	 5.587623e-01
2.059782e+02 	 2.477951e-01 	 1.646611e-01 	  8.152712e-02 	 5.659318e-01
1.853856e+02 	 2.468444e-01 	 1.645174e-01 	  8.219044e-02 	 5.709806e-01
1.668517e+02 	 2.456585e-01 	 1.639759e-01 	  8.229335e-02 	 5.735909e-01
1.501708e+02 	 2.440891e-01 	 1.629140e-01 	  8.173885e-02 	 5.734388e-01
1.351575e+02 	 2.420383e-01 	 1.612557e-01 	  8.047305e-02 	 5.703595e-01
1.216452e+02 	 2.395453e-01 	 1.590590e-01 	  7.857274e-02 	 5.646613e-01
1.094837e+02 	 2.369232e-01 	 1.566542e-01 	  7.638509e-02 	 5.576290e-01
9.853815e+01 	 2.349283e-01 	 1.548139e-01 	  7.469953e-02 	 5.521424e-01
8.868683e+01 	 2.348491e-01 	 1.548447e-01 	  7.484023e-02 	 5.530111e-01
7.982040e+01 	 2.382497e-01 	 1.583321e-01 	  7.841461e-02 	 5.660811e-01
7.184038e+01 	 2.460997e-01 	 1.662745e-01 	  8.644925e-02 	 5.951646e-01
6.465817e+01 	 2.575346e-01 	 1.778465e-01 	  9.815849e-02 	 6.376816e-01
5.819399e+01 	 2.691752e-01 	 1.897246e-01 	  1.102740e-01 	 6.823044e-01
5.237607e+01 	 2.757703e-01 	 1.967336e-01 	  1.176969e-01 	 7.112155e-01
4.713979e+01 	 2.722993e-01 	 1.939531e-01 	  1.156068e-01 	 7.073433e-01
4.242700e+01 	 2.574132e-01 	 1.801566e-01 	  1.029000e-01 	 6.662942e-01
3.818538e+01 	 2.366829e-01 	 1.610476e-01 	  8.541240e-02 	 6.083896e-01
3.436781e+01 	 2.190986e-01 	 1.457338e-01 	  7.236910e-02 	 5.675768e-01
3.093190e+01 	 2.028605e-01 	 1.324788e-01 	  6.209713e-02 	 5.378219e-01
2.783950e+01 	 1.775975e-01 	 1.108819e-01 	  4.416635e-02 	 4.748814e-01
2.505625e+01 	 1.545702e-01 	 9.206140e-02 	  2.955258e-02 	 4.208118e-01
2.255126e+01 	 1.508391e-01 	 9.283682e-02 	  3.483453e-02 	 4.573269e-01
2.029671e+01 	 1.432713e-01 	 8.977866e-02 	  3.628606e-02 	 4.795469e-01
1.826755e+01 	 1.301215e-01 	 8.083710e-02 	  3.155268e-02 	 4.686544e-01
1.644126e+01 	 1.118456e-01 	 6.618280e-02 	  2.051996e-02 	 4.141273e-01
1.479755e+01 	 1.069752e-01 	 6.408185e-02 	  2.118852e-02 	 4.268712e-01
1.331817e+01 	 9.294789e-02 	 5.171039e-02 	  1.047289e-02 	 3.582921e-01
1.198669e+01 	 7.621021e-02 	 3.526131e-02 	  0.000000e+00 	 2.460412e-01
1.078833e+01 	 6.962586e-02 	 2.746158e-02 	  0.000000e+00 	 1.860941e-01
9.709767e+00 	 5.890506e-02 	 1.438928e-02 	  0.000000e+00 	 9.235843e-02
8.739037e+00 	 7.051556e-02 	 2.403022e-02 	  0.000000e+00 	 1.477044e-01
7.865355e+00 	 7.355025e-02 	 2.750319e-02 	  0.000000e+00 	 1.706604e-01
7.079019e+00 	 7.082548e-02 	 2.711333e-02 	  0.000000e+00 	 1.772280e-01
6.371296e+00 	 6.809145e-02 	 2.577604e-02 	  0.000000e+00 	 1.740481e-01
5.734328e+00 	 6.490383e-02 	 2.187141e-02 	  0.000000e+00 	 1.452220e-01
5.161041e+00 	 6.314178e-02 	 1.923141e-02 	  0.000000e+00 	 1.251398e-01
4.645068e+00 	 6.181744e-02 	 1.725726e-02 	  0.000000e+00 	 1.106564e-01
4.180679e+00 	 6.016773e-02 	 1.208295e-02 	  0.000000e+00 	 7.179875e-02
3.762717e+00 	 6.124115e-02 	 1.358946e-02 	  0.000000e+00 	 8.148459e-02
3.386540e+00 	 5.455475e-02 	 1.010285e-02 	  0.000000e+00 	 6.493892e-02
3.047972e+00 	 5.013967e-02 	 3.008370e-03 	  0.000000e+00 	 1.823784e-02
2.743252e+00 	 5.120507e-02 	 7.536937e-03 	  0.000000e+00 	 4.931533e-02
2.468997e+00 	 5.459500e-02 	 9.097377e-03 	  0.000000e+00 	 5.713196e-02
2.222160e+00 	 5.426620e-02 	 8.176031e-03 	  0.000000e+00 	 5.068575e-02
2.000000e+00 	 5.426620e-02 	 8.176031e-03 	  0.000000e+00 	 0.000000e+00
 
AI-2020~FIC-2004  
  FreqPeriod(min) 	 Unc_UB 	 Bode 	 Unc_LB 	 S/N_Ratio
1.000000e+03 	 5.469289e-01 	 4.975954e-01 	  4.482619e-01 	 2.472454e+00
9.000254e+02 	 5.463518e-01 	 4.970183e-01 	  4.476848e-01 	 2.531890e+00
8.100456e+02 	 5.456404e-01 	 4.963069e-01 	  4.469734e-01 	 2.584734e+00
7.290616e+02 	 5.447637e-01 	 4.954302e-01 	  4.460967e-01 	 2.630523e+00
6.561739e+02 	 5.436839e-01 	 4.943504e-01 	  4.450169e-01 	 2.669031e+00
5.905732e+02 	 5.423545e-01 	 4.930210e-01 	  4.436875e-01 	 2.700208e+00
5.315308e+02 	 5.407189e-01 	 4.913854e-01 	  4.420519e-01 	 2.724107e+00
4.783912e+02 	 5.387082e-01 	 4.893747e-01 	  4.400412e-01 	 2.740810e+00
4.305642e+02 	 5.362391e-01 	 4.869056e-01 	  4.375721e-01 	 2.750363e+00
3.875187e+02 	 5.332106e-01 	 4.838771e-01 	  4.345436e-01 	 2.752722e+00
3.487767e+02 	 5.295021e-01 	 4.801686e-01 	  4.308351e-01 	 2.747706e+00
3.139079e+02 	 5.249700e-01 	 4.756365e-01 	  4.263030e-01 	 2.734961e+00
2.825250e+02 	 5.194452e-01 	 4.701117e-01 	  4.207782e-01 	 2.713941e+00
2.542797e+02 	 5.127318e-01 	 4.633983e-01 	  4.140648e-01 	 2.683886e+00
2.288582e+02 	 5.044765e-01 	 4.552737e-01 	  4.060709e-01 	 2.643835e+00
2.059782e+02 	 4.945890e-01 	 4.454927e-01 	  3.963963e-01 	 2.592645e+00
1.853856e+02 	 4.828064e-01 	 4.337970e-01 	  3.847876e-01 	 2.529059e+00
1.668517e+02 	 4.688731e-01 	 4.199353e-01 	  3.709976e-01 	 2.451828e+00
1.501708e+02 	 4.525757e-01 	 4.036981e-01 	  3.548205e-01 	 2.359926e+00
1.351575e+02 	 4.338009e-01 	 3.849757e-01 	  3.361505e-01 	 2.252895e+00
1.216452e+02 	 4.126232e-01 	 3.638467e-01 	  3.150703e-01 	 2.131376e+00
1.094837e+02 	 3.894284e-01 	 3.407018e-01 	  2.919753e-01 	 1.997838e+00
9.853815e+01 	 3.650591e-01 	 3.163897e-01 	  2.677204e-01 	 1.857455e+00
8.868683e+01 	 3.409192e-01 	 2.923228e-01 	  2.437264e-01 	 1.718740e+00
7.982040e+01 	 3.188787e-01 	 2.703828e-01 	  2.218869e-01 	 1.593036e+00
7.184038e+01 	 3.007176e-01 	 2.523667e-01 	  2.040157e-01 	 1.491346e+00
6.465817e+01 	 2.870224e-01 	 2.388845e-01 	  1.907467e-01 	 1.417925e+00
5.819399e+01 	 2.761981e-01 	 2.283746e-01 	  1.805512e-01 	 1.364453e+00
5.237607e+01 	 2.650161e-01 	 2.176523e-01 	  1.702886e-01 	 1.313012e+00
4.713979e+01 	 2.514120e-01 	 2.047090e-01 	  1.580060e-01 	 1.252403e+00
4.242700e+01 	 2.379121e-01 	 1.921357e-01 	  1.463593e-01 	 1.199273e+00
3.818538e+01 	 2.303544e-01 	 1.858353e-01 	  1.413161e-01 	 1.192705e+00
3.436781e+01 	 2.275878e-01 	 1.847055e-01 	  1.418231e-01 	 1.230702e+00
3.093190e+01 	 2.177129e-01 	 1.768580e-01 	  1.360031e-01 	 1.236892e+00
2.783950e+01 	 1.969276e-01 	 1.584442e-01 	  1.199609e-01 	 1.176400e+00
2.505625e+01 	 1.795555e-01 	 1.436779e-01 	  1.078003e-01 	 1.144242e+00
2.255126e+01 	 1.623380e-01 	 1.291415e-01 	  9.594488e-02 	 1.111537e+00
2.029671e+01 	 1.409840e-01 	 1.103658e-01 	  7.974760e-02 	 1.029927e+00
1.826755e+01 	 1.445810e-01 	 1.162714e-01 	  8.796169e-02 	 1.173517e+00
1.644126e+01 	 1.477947e-01 	 1.213837e-01 	  9.497281e-02 	 1.313193e+00
1.479755e+01 	 1.426404e-01 	 1.176048e-01 	  9.256922e-02 	 1.342206e+00
1.331817e+01 	 1.221497e-01 	 9.786718e-02 	  7.358467e-02 	 1.151583e+00
1.198669e+01 	 1.006189e-01 	 7.637706e-02 	  5.213527e-02 	 9.002225e-01
1.078833e+01 	 9.492734e-02 	 6.997408e-02 	  4.502082e-02 	 8.012381e-01
9.709767e+00 	 9.293855e-02 	 6.671436e-02 	  4.049017e-02 	 7.268902e-01
8.739037e+00 	 8.070313e-02 	 5.340532e-02 	  2.610751e-02 	 5.589955e-01
7.865355e+00 	 7.325103e-02 	 4.609536e-02 	  1.893969e-02 	 4.850073e-01
7.079019e+00 	 6.960422e-02 	 4.355594e-02 	  1.750767e-02 	 4.777714e-01
6.371296e+00 	 6.605818e-02 	 4.069508e-02 	  1.533198e-02 	 4.584492e-01
5.734328e+00 	 5.806870e-02 	 3.239170e-02 	  6.714691e-03 	 3.604466e-01
5.161041e+00 	 5.985129e-02 	 3.370143e-02 	  7.551571e-03 	 3.682397e-01
4.645068e+00 	 5.499319e-02 	 2.828852e-02 	  1.583849e-03 	 3.026737e-01
4.180679e+00 	 5.689112e-02 	 2.820429e-02 	  0.000000e+00 	 2.809210e-01
3.762717e+00 	 5.393429e-02 	 2.560908e-02 	  0.000000e+00 	 2.583286e-01
3.386540e+00 	 4.525511e-02 	 1.865393e-02 	  0.000000e+00 	 2.003646e-01
3.047972e+00 	 4.088351e-02 	 1.281788e-02 	  0.000000e+00 	 1.304947e-01
2.743252e+00 	 3.912716e-02 	 1.315507e-02 	  0.000000e+00 	 1.447231e-01
2.468997e+00 	 4.224751e-02 	 1.581179e-02 	  0.000000e+00 	 1.708998e-01
2.222160e+00 	 4.195538e-02 	 1.518764e-02 	  0.000000e+00 	 1.621176e-01
2.000000e+00 	 4.195538e-02 	 1.518764e-02 	  0.000000e+00 	 0.000000e+00
 
AI-2020~TIC-2003  
  FreqPeriod(min) 	 Unc_UB 	 Bode 	 Unc_LB 	 S/N_Ratio
1.000000e+03 	 3.397117e-01 	 3.033346e-01 	  2.669575e-01 	 1.444199e+00
9.000254e+02 	 3.394638e-01 	 3.030867e-01 	  2.667097e-01 	 1.535260e+00
8.100456e+02 	 3.391584e-01 	 3.027814e-01 	  2.664043e-01 	 1.627188e+00
7.290616e+02 	 3.387824e-01 	 3.024054e-01 	  2.660283e-01 	 1.718280e+00
6.561739e+02 	 3.383197e-01 	 3.019426e-01 	  2.655655e-01 	 1.806769e+00
5.905732e+02 	 3.377506e-01 	 3.013735e-01 	  2.649965e-01 	 1.890929e+00
5.315308e+02 	 3.370514e-01 	 3.006743e-01 	  2.642973e-01 	 1.969170e+00
4.783912e+02 	 3.361933e-01 	 2.998162e-01 	  2.634391e-01 	 2.040123e+00
4.305642e+02 	 3.351416e-01 	 2.987645e-01 	  2.623874e-01 	 2.102690e+00
3.875187e+02 	 3.338549e-01 	 2.974778e-01 	  2.611007e-01 	 2.156055e+00
3.487767e+02 	 3.322839e-01 	 2.959069e-01 	  2.595298e-01 	 2.199654e+00
3.139079e+02 	 3.303711e-01 	 2.939940e-01 	  2.576169e-01 	 2.233133e+00
2.825250e+02 	 3.280494e-01 	 2.916724e-01 	  2.552953e-01 	 2.256272e+00
2.542797e+02 	 3.252432e-01 	 2.888661e-01 	  2.524890e-01 	 2.268927e+00
2.288582e+02 	 3.214107e-01 	 2.854911e-01 	  2.495714e-01 	 2.270972e+00
2.059782e+02 	 3.170059e-01 	 2.814575e-01 	  2.459091e-01 	 2.262270e+00
1.853856e+02 	 3.119243e-01 	 2.766746e-01 	  2.414250e-01 	 2.242675e+00
1.668517e+02 	 3.060701e-01 	 2.710582e-01 	  2.360464e-01 	 2.212073e+00
1.501708e+02 	 2.993680e-01 	 2.645428e-01 	  2.297175e-01 	 2.170467e+00
1.351575e+02 	 2.917789e-01 	 2.570973e-01 	  2.224157e-01 	 2.118116e+00
1.216452e+02 	 2.833189e-01 	 2.487451e-01 	  2.141714e-01 	 2.055701e+00
1.094837e+02 	 2.740781e-01 	 2.395831e-01 	  2.050881e-01 	 1.984501e+00
9.853815e+01 	 2.642308e-01 	 2.297918e-01 	  1.953528e-01 	 1.906494e+00
8.868683e+01 	 2.540206e-01 	 2.196222e-01 	  1.852238e-01 	 1.824270e+00
7.982040e+01 	 2.437051e-01 	 2.093407e-01 	  1.749763e-01 	 1.740591e+00
