FIC-2101~FIC-2001  
  FreqPeriod(min) 	 Unc_UB 	 Bode 	 Unc_LB 	 S/N_Ratio
1.000000e+03 	 6.016777e-01 	 5.262995e-01 	  4.509213e-01 	 1.305221e+00
9.000254e+02 	 6.080094e-01 	 5.326312e-01 	  4.572530e-01 	 1.407058e+00
8.100456e+02 	 6.157158e-01 	 5.403376e-01 	  4.649594e-01 	 1.521554e+00
7.290616e+02 	 6.250685e-01 	 5.496903e-01 	  4.743121e-01 	 1.649652e+00
6.561739e+02 	 6.363814e-01 	 5.610032e-01 	  4.856250e-01 	 1.792346e+00
5.905732e+02 	 6.500127e-01 	 5.746345e-01 	  4.992563e-01 	 1.950719e+00
5.315308e+02 	 6.663653e-01 	 5.909871e-01 	  5.156089e-01 	 2.125970e+00
4.783912e+02 	 6.858854e-01 	 6.105072e-01 	  5.351290e-01 	 2.319466e+00
4.305642e+02 	 7.090576e-01 	 6.336794e-01 	  5.583012e-01 	 2.532768e+00
3.875187e+02 	 7.363973e-01 	 6.610191e-01 	  5.856409e-01 	 2.767656e+00
3.487767e+02 	 7.684386e-01 	 6.930604e-01 	  6.176822e-01 	 3.026114e+00
3.139079e+02 	 8.029530e-01 	 7.303391e-01 	  6.577253e-01 	 3.310281e+00
2.825250e+02 	 8.436364e-01 	 7.733684e-01 	  7.031003e-01 	 3.622332e+00
2.542797e+02 	 8.908998e-01 	 8.226053e-01 	  7.543107e-01 	 3.964287e+00
2.288582e+02 	 9.450527e-01 	 8.784039e-01 	  8.117550e-01 	 4.337719e+00
2.059782e+02 	 1.006239e+00 	 9.409495e-01 	  8.756602e-01 	 4.743341e+00
1.853856e+02 	 1.074346e+00 	 1.010168e+00 	  9.459902e-01 	 5.180444e+00
1.668517e+02 	 1.148890e+00 	 1.085608e+00 	  1.022326e+00 	 5.646166e+00
1.501708e+02 	 1.228862e+00 	 1.166290e+00 	  1.103718e+00 	 6.134615e+00
1.351575e+02 	 1.312575e+00 	 1.250551e+00 	  1.188527e+00 	 6.635928e+00
1.216452e+02 	 1.397530e+00 	 1.335912e+00 	  1.274293e+00 	 7.135519e+00
1.094837e+02 	 1.480388e+00 	 1.419048e+00 	  1.357707e+00 	 7.613947e+00
9.853815e+01 	 1.557162e+00 	 1.495984e+00 	  1.434805e+00 	 8.048056e+00
8.868683e+01 	 1.623734e+00 	 1.562611e+00 	  1.501487e+00 	 8.413985e+00
7.982040e+01 	 1.676673e+00 	 1.615501e+00 	  1.554328e+00 	 8.691849e+00
7.184038e+01 	 1.713918e+00 	 1.652596e+00 	  1.591274e+00 	 8.869743e+00
6.465817e+01 	 1.734374e+00 	 1.672802e+00 	  1.611230e+00 	 8.941747e+00
5.819399e+01 	 1.735475e+00 	 1.673553e+00 	  1.611630e+00 	 8.895145e+00
5.237607e+01 	 1.710011e+00 	 1.647639e+00 	  1.585267e+00 	 8.694226e+00
4.713979e+01 	 1.647569e+00 	 1.584650e+00 	  1.521732e+00 	 8.289300e+00
4.242700e+01 	 1.545473e+00 	 1.481923e+00 	  1.418373e+00 	 7.674828e+00
3.818538e+01 	 1.420730e+00 	 1.356481e+00 	  1.292231e+00 	 6.948720e+00
3.436781e+01 	 1.300391e+00 	 1.235408e+00 	  1.170426e+00 	 6.257112e+00
3.093190e+01 	 1.197958e+00 	 1.132259e+00 	  1.066560e+00 	 5.672156e+00
2.783950e+01 	 1.113101e+00 	 1.046774e+00 	  9.804459e-01 	 5.194195e+00
2.505625e+01 	 1.015908e+00 	 9.491261e-01 	  8.823446e-01 	 4.677651e+00
2.255126e+01 	 8.814678e-01 	 8.144992e-01 	  7.475305e-01 	 4.002939e+00
2.029671e+01 	 7.640704e-01 	 6.972514e-01 	  6.304324e-01 	 3.434388e+00
1.826755e+01 	 6.681828e-01 	 6.018598e-01 	  5.355368e-01 	 2.986697e+00
1.644126e+01 	 5.548713e-01 	 4.892943e-01 	  4.237174e-01 	 2.455721e+00
1.479755e+01 	 4.451255e-01 	 3.803106e-01 	  3.154957e-01 	 1.931183e+00
1.331817e+01 	 3.680792e-01 	 3.036824e-01 	  2.392857e-01 	 1.552086e+00
1.198669e+01 	 2.879135e-01 	 2.232061e-01 	  1.584987e-01 	 1.135304e+00
1.078833e+01 	 2.196283e-01 	 1.537082e-01 	  8.778806e-02 	 7.674302e-01
9.709767e+00 	 1.776348e-01 	 1.099742e-01 	  4.231372e-02 	 5.349530e-01
8.739037e+00 	 1.461725e-01 	 7.725783e-02 	  8.343139e-03 	 3.689696e-01
7.865355e+00 	 1.167337e-01 	 4.795063e-02 	  0.000000e+00 	 2.294418e-01
7.079019e+00 	 9.487703e-02 	 2.717920e-02 	  0.000000e+00 	 1.321362e-01
6.371296e+00 	 8.799301e-02 	 2.092718e-02 	  0.000000e+00 	 1.026997e-01
5.734328e+00 	 7.722144e-02 	 1.047654e-02 	  0.000000e+00 	 5.166061e-02
5.161041e+00 	 7.615032e-02 	 1.131309e-02 	  0.000000e+00 	 5.742708e-02
4.645068e+00 	 8.500285e-02 	 2.207671e-02 	  0.000000e+00 	 1.154684e-01
4.180679e+00 	 1.027642e-01 	 3.804385e-02 	  0.000000e+00 	 1.934654e-01
3.762717e+00 	 1.187623e-01 	 5.035146e-02 	  0.000000e+00 	 2.422408e-01
3.386540e+00 	 1.285495e-01 	 5.428090e-02 	  0.000000e+00 	 2.405480e-01
3.047972e+00 	 1.111364e-01 	 3.808033e-02 	  0.000000e+00 	 1.715554e-01
2.743252e+00 	 1.096586e-01 	 3.998207e-02 	  0.000000e+00 	 1.888594e-01
2.468997e+00 	 1.004079e-01 	 2.955681e-02 	  0.000000e+00 	 1.373002e-01
2.222160e+00 	 8.449682e-02 	 1.537528e-02 	  0.000000e+00 	 7.320985e-02
2.000000e+00 	 8.449682e-02 	 1.537528e-02 	  0.000000e+00 	 0.000000e+00
 
FIC-2101~FIC-2002  
  FreqPeriod(min) 	 Unc_UB 	 Bode 	 Unc_LB 	 S/N_Ratio
1.000000e+03 	 2.899485e-01 	 1.782144e-01 	  6.648026e-02 	 3.090071e-01
9.000254e+02 	 2.907939e-01 	 1.790597e-01 	  6.732558e-02 	 3.299357e-01
8.100456e+02 	 2.918250e-01 	 1.800909e-01 	  6.835674e-02 	 3.527646e-01
7.290616e+02 	 2.930795e-01 	 1.813453e-01 	  6.961118e-02 	 3.774232e-01
6.561739e+02 	 2.946005e-01 	 1.828664e-01 	  7.113225e-02 	 4.038056e-01
5.905732e+02 	 2.964375e-01 	 1.847034e-01 	  7.296926e-02 	 4.317808e-01
5.315308e+02 	 2.986454e-01 	 1.869112e-01 	  7.517709e-02 	 4.612067e-01
4.783912e+02 	 3.012834e-01 	 1.895492e-01 	  7.781509e-02 	 4.919459e-01
4.305642e+02 	 3.044131e-01 	 1.926790e-01 	  8.094483e-02 	 5.238821e-01
3.875187e+02 	 3.080947e-01 	 1.963605e-01 	  8.462638e-02 	 5.569282e-01
3.487767e+02 	 3.123809e-01 	 2.006467e-01 	  8.891259e-02 	 5.910254e-01
3.139079e+02 	 3.136361e-01 	 2.055749e-01 	  9.751374e-02 	 6.261240e-01
2.825250e+02 	 3.161120e-01 	 2.111556e-01 	  1.061992e-01 	 6.621457e-01
2.542797e+02 	 3.197111e-01 	 2.173572e-01 	  1.150033e-01 	 6.989236e-01
2.288582e+02 	 3.242784e-01 	 2.240875e-01 	  1.238967e-01 	 7.361216e-01
2.059782e+02 	 3.295799e-01 	 2.311705e-01 	  1.327610e-01 	 7.731354e-01
1.853856e+02 	 3.352770e-01 	 2.383194e-01 	  1.413619e-01 	 8.089799e-01
1.668517e+02 	 3.408991e-01 	 2.451093e-01 	  1.493196e-01 	 8.421720e-01
1.501708e+02 	 3.458172e-01 	 2.509502e-01 	  1.560831e-01 	 8.706270e-01
1.351575e+02 	 3.492282e-01 	 2.550712e-01 	  1.609141e-01 	 8.915963e-01
1.216452e+02 	 3.501633e-01 	 2.565295e-01 	  1.628958e-01 	 9.017058e-01
1.094837e+02 	 3.475478e-01 	 2.542711e-01 	  1.609944e-01 	 8.971883e-01
9.853815e+01 	 3.403571e-01 	 2.472861e-01 	  1.542152e-01 	 8.744709e-01
8.868683e+01 	 3.279381e-01 	 2.349318e-01 	  1.419255e-01 	 8.313604e-01
7.982040e+01 	 3.105916e-01 	 2.175151e-01 	  1.244386e-01 	 7.691467e-01
7.184038e+01 	 2.904746e-01 	 1.971957e-01 	  1.039169e-01 	 6.957839e-01
6.465817e+01 	 2.724779e-01 	 1.788653e-01 	  8.525266e-02 	 6.288565e-01
5.819399e+01 	 2.632603e-01 	 1.691821e-01 	  7.510388e-02 	 5.918685e-01
5.237607e+01 	 2.656922e-01 	 1.710175e-01 	  7.634291e-02 	 5.945207e-01
4.713979e+01 	 2.732386e-01 	 1.778418e-01 	  8.244491e-02 	 6.135637e-01
4.242700e+01 	 2.738651e-01 	 1.776332e-01 	  8.140128e-02 	 6.075261e-01
3.818538e+01 	 2.591511e-01 	 1.619972e-01 	  6.484335e-02 	 5.487915e-01
3.436781e+01 	 2.305253e-01 	 1.324071e-01 	  3.428884e-02 	 4.441415e-01
3.093190e+01 	 1.990439e-01 	 9.998764e-02 	  9.314078e-04 	 3.322190e-01
2.783950e+01 	 1.732952e-01 	 7.342274e-02 	  0.000000e+00 	 2.419607e-01
2.505625e+01 	 1.501275e-01 	 4.967823e-02 	  0.000000e+00 	 1.627718e-01
2.255126e+01 	 1.463561e-01 	 4.569179e-02 	  0.000000e+00 	 1.493905e-01
2.029671e+01 	 1.610022e-01 	 6.057639e-02 	  0.000000e+00 	 1.985262e-01
1.826755e+01 	 1.687061e-01 	 6.897909e-02 	  0.000000e+00 	 2.276484e-01
1.644126e+01 	 1.658718e-01 	 6.716646e-02 	  0.000000e+00 	 2.239607e-01
1.479755e+01 	 1.442271e-01 	 4.654415e-02 	  0.000000e+00 	 1.568217e-01
1.331817e+01 	 1.160351e-01 	 1.889049e-02 	  0.000000e+00 	 6.400064e-02
1.198669e+01 	 1.101907e-01 	 1.259393e-02 	  0.000000e+00 	 4.247035e-02
1.078833e+01 	 1.192440e-01 	 1.999350e-02 	  0.000000e+00 	 6.630039e-02
9.709767e+00 	 1.212767e-01 	 1.969287e-02 	  0.000000e+00 	 6.380346e-02
8.739037e+00 	 1.222845e-01 	 1.903682e-02 	  0.000000e+00 	 6.068397e-02
7.865355e+00 	 1.081101e-01 	 4.994914e-03 	  0.000000e+00 	 1.594282e-02
7.079019e+00 	 1.039606e-01 	 2.089924e-03 	  0.000000e+00 	 6.752138e-03
6.371296e+00 	 1.245834e-01 	 2.329243e-02 	  0.000000e+00 	 7.568395e-02
5.734328e+00 	 1.235748e-01 	 2.284029e-02 	  0.000000e+00 	 7.462486e-02
5.161041e+00 	 1.011505e-01 	 3.578281e-03 	  0.000000e+00 	 1.207003e-02
4.645068e+00 	 1.031073e-01 	 8.282461e-03 	  0.000000e+00 	 2.874732e-02
4.180679e+00 	 1.138445e-01 	 1.606892e-02 	  0.000000e+00 	 5.408991e-02
3.762717e+00 	 1.129799e-01 	 1.003910e-02 	  0.000000e+00 	 3.209718e-02
3.386540e+00 	 1.190019e-01 	 7.375937e-03 	  0.000000e+00 	 2.174763e-02
3.047972e+00 	 1.171429e-01 	 6.897325e-03 	  0.000000e+00 	 2.059109e-02
2.743252e+00 	 1.125573e-01 	 7.606917e-03 	  0.000000e+00 	 2.385528e-02
2.468997e+00 	 1.106853e-01 	 3.560416e-03 	  0.000000e+00 	 1.093881e-02
2.222160e+00 	 1.106615e-01 	 7.209715e-03 	  0.000000e+00 	 2.293719e-02
2.000000e+00 	 1.106615e-01 	 7.209715e-03 	  0.000000e+00 	 0.000000e+00
 
FIC-2101~TIC-2003  
  FreqPeriod(min) 	 Unc_UB 	 Bode 	 Unc_LB 	 S/N_Ratio
1.000000e+03 	 8.231198e-01 	 7.760578e-01 	  7.289958e-01 	 3.351162e+00
9.000254e+02 	 8.219370e-01 	 7.748750e-01 	  7.278130e-01 	 3.543689e+00
8.100456e+02 	 8.204798e-01 	 7.734178e-01 	  7.263558e-01 	 3.745644e+00
7.290616e+02 	 8.186855e-01 	 7.716235e-01 	  7.245615e-01 	 3.953552e+00
6.561739e+02 	 8.164774e-01 	 7.694154e-01 	  7.223534e-01 	 4.163220e+00
5.905732e+02 	 8.137622e-01 	 7.667003e-01 	  7.196383e-01 	 4.369882e+00
5.315308e+02 	 8.104265e-01 	 7.633646e-01 	  7.163026e-01 	 4.568412e+00
4.783912e+02 	 8.063332e-01 	 7.592712e-01 	  7.122092e-01 	 4.753568e+00
4.305642e+02 	 8.013173e-01 	 7.542553e-01 	  7.071933e-01 	 4.920244e+00
3.875187e+02 	 7.951818e-01 	 7.481198e-01 	  7.010578e-01 	 5.063669e+00
3.487767e+02 	 7.876933e-01 	 7.406313e-01 	  6.935693e-01 	 5.179545e+00
3.139079e+02 	 7.772525e-01 	 7.315163e-01 	  6.857800e-01 	 5.264089e+00
2.825250e+02 	 7.650814e-01 	 7.204594e-01 	  6.758375e-01 	 5.313992e+00
2.542797e+02 	 7.507976e-01 	 7.071043e-01 	  6.634110e-01 	 5.326335e+00
2.288582e+02 	 7.339855e-01 	 6.910592e-01 	  6.481329e-01 	 5.298489e+00
2.059782e+02 	 7.142109e-01 	 6.719119e-01 	  6.296129e-01 	 5.228081e+00
1.853856e+02 	 6.910480e-01 	 6.492559e-01 	  6.074638e-01 	 5.113063e+00
1.668517e+02 	 6.641239e-01 	 6.227348e-01 	  5.813456e-01 	 4.951955e+00
1.501708e+02 	 6.331854e-01 	 5.921093e-01 	  5.510333e-01 	 4.744314e+00
1.351575e+02 	 5.981919e-01 	 5.573504e-01 	  5.165090e-01 	 4.491455e+00
1.216452e+02 	 5.594279e-01 	 5.187513e-01 	  4.780748e-01 	 4.197351e+00
1.094837e+02 	 5.176081e-01 	 4.770335e-01 	  4.364589e-01 	 3.869498e+00
9.853815e+01 	 4.739109e-01 	 4.333798e-01 	  3.928487e-01 	 3.519174e+00
8.868683e+01 	 4.298182e-01 	 3.892751e-01 	  3.487319e-01 	 3.160086e+00
7.982040e+01 	 3.866296e-01 	 3.460199e-01 	  3.054102e-01 	 2.804341e+00
7.184038e+01 	 3.446796e-01 	 3.039488e-01 	  2.632179e-01 	 2.456048e+00
6.465817e+01 	 3.027792e-01 	 2.618718e-01 	  2.209644e-01 	 2.106914e+00
5.819399e+01 	 2.589301e-01 	 2.177896e-01 	  1.766492e-01 	 1.742320e+00
5.237607e+01 	 2.131508e-01 	 1.717204e-01 	  1.302900e-01 	 1.364151e+00
4.713979e+01 	 1.719279e-01 	 1.301523e-01 	  8.837672e-02 	 1.025391e+00
4.242700e+01 	 1.494500e-01 	 1.072794e-01 	  6.510881e-02 	 8.372718e-01
3.818538e+01 	 1.510433e-01 	 1.084391e-01 	  6.583503e-02 	 8.377115e-01
3.436781e+01 	 1.611464e-01 	 1.180903e-01 	  7.503422e-02 	 9.026921e-01
3.093190e+01 	 1.674403e-01 	 1.239449e-01 	  8.044951e-02 	 9.378758e-01
2.783950e+01 	 1.659426e-01 	 1.220640e-01 	  7.818536e-02 	 9.155765e-01
2.505625e+01 	 1.554835e-01 	 1.113317e-01 	  6.717983e-02 	 8.299077e-01
2.255126e+01 	 1.345528e-01 	 9.029399e-02 	  4.603520e-02 	 6.714586e-01
2.029671e+01 	 1.059136e-01 	 6.175713e-02 	  1.760061e-02 	 4.603119e-01
1.826755e+01 	 7.577746e-02 	 3.193750e-02 	  0.000000e+00 	 2.397677e-01
1.644126e+01 	 6.487804e-02 	 2.150863e-02 	  0.000000e+00 	 1.632259e-01
1.479755e+01 	 6.903184e-02 	 2.614242e-02 	  0.000000e+00 	 2.006113e-01
1.331817e+01 	 6.586748e-02 	 2.324724e-02 	  0.000000e+00 	 1.795211e-01
1.198669e+01 	 6.054569e-02 	 1.774994e-02 	  0.000000e+00 	 1.365074e-01
1.078833e+01 	 5.475092e-02 	 1.123038e-02 	  0.000000e+00 	 8.492982e-02
9.709767e+00 	 4.822469e-02 	 3.655368e-03 	  0.000000e+00 	 2.699324e-02
8.739037e+00 	 4.902737e-02 	 3.690161e-03 	  0.000000e+00 	 2.678863e-02
7.865355e+00 	 4.616803e-02 	 8.639570e-04 	  0.000000e+00 	 6.276460e-03
7.079019e+00 	 4.618632e-02 	 1.429633e-03 	  0.000000e+00 	 1.051300e-02
6.371296e+00 	 4.749598e-02 	 2.996733e-03 	  0.000000e+00 	 2.216437e-02
5.734328e+00 	 4.647836e-02 	 2.186364e-03 	  0.000000e+00 	 1.624640e-02
5.161041e+00 	 4.626449e-02 	 3.307964e-03 	  0.000000e+00 	 2.534495e-02
4.645068e+00 	 4.513741e-02 	 3.422036e-03 	  0.000000e+00 	 2.699904e-02
4.180679e+00 	 4.349180e-02 	 5.970685e-04 	  0.000000e+00 	 4.581210e-03
3.762717e+00 	 4.912136e-02 	 3.864979e-03 	  0.000000e+00 	 2.810783e-02
3.386540e+00 	 5.515688e-02 	 5.878160e-03 	  0.000000e+00 	 3.925924e-02
3.047972e+00 	 5.370131e-02 	 5.458961e-03 	  0.000000e+00 	 3.724272e-02
2.743252e+00 	 4.984382e-02 	 3.818735e-03 	  0.000000e+00 	 2.730768e-02
2.468997e+00 	 5.028853e-02 	 3.353242e-03 	  0.000000e+00 	 2.351394e-02
2.222160e+00 	 4.918933e-02 	 3.663128e-03 	  0.000000e+00 	 2.648199e-02
2.000000e+00 	 4.918933e-02 	 3.663128e-03 	  0.000000e+00 	 0.000000e+00
 
FIC-2101~FIC-2004  
  FreqPeriod(min) 	 Unc_UB 	 Bode 	 Unc_LB 	 S/N_Ratio
1.000000e+03 	 5.352045e-01 	 4.781025e-01 	  4.210006e-01 	 2.566273e+00
9.000254e+02 	 5.384140e-01 	 4.813121e-01 	  4.242101e-01 	 2.614215e+00
8.100456e+02 	 5.423324e-01 	 4.852305e-01 	  4.281285e-01 	 2.664008e+00
7.290616e+02 	 5.471046e-01 	 4.900026e-01 	  4.329007e-01 	 2.716244e+00
6.561739e+02 	 5.528995e-01 	 4.957976e-01 	  4.386956e-01 	 2.771802e+00
5.905732e+02 	 5.599116e-01 	 5.028097e-01 	  4.457077e-01 	 2.831831e+00
5.315308e+02 	 5.683609e-01 	 5.112590e-01 	  4.541570e-01 	 2.897731e+00
4.783912e+02 	 5.784912e-01 	 5.213893e-01 	  4.642874e-01 	 2.971104e+00
4.305642e+02 	 5.905654e-01 	 5.334635e-01 	  4.763615e-01 	 3.053701e+00
3.875187e+02 	 6.048565e-01 	 5.477545e-01 	  4.906526e-01 	 3.147350e+00
3.487767e+02 	 6.216335e-01 	 5.645315e-01 	  5.074296e-01 	 3.253848e+00
3.139079e+02 	 6.409951e-01 	 5.840378e-01 	  5.270805e-01 	 3.374825e+00
2.825250e+02 	 6.633015e-01 	 6.064603e-01 	  5.496192e-01 	 3.511555e+00
2.542797e+02 	 6.886360e-01 	 6.318866e-01 	  5.751372e-01 	 3.664695e+00
2.288582e+02 	 7.169254e-01 	 6.602467e-01 	  6.035679e-01 	 3.833945e+00
2.059782e+02 	 7.478619e-01 	 6.912353e-01 	  6.346087e-01 	 4.017590e+00
1.853856e+02 	 7.808015e-01 	 7.242106e-01 	  6.676198e-01 	 4.211908e+00
1.668517e+02 	 8.146359e-01 	 7.580658e-01 	  7.014957e-01 	 4.410421e+00
1.501708e+02 	 8.476385e-01 	 7.910751e-01 	  7.345116e-01 	 4.603006e+00
1.351575e+02 	 8.772979e-01 	 8.207273e-01 	  7.641567e-01 	 4.774938e+00
1.216452e+02 	 9.001747e-01 	 8.435830e-01 	  7.869913e-01 	 4.906086e+00
1.094837e+02 	 9.118585e-01 	 8.552313e-01 	  7.986041e-01 	 4.970711e+00
9.853815e+01 	 9.071647e-01 	 8.504865e-01 	  7.938083e-01 	 4.938688e+00
8.868683e+01 	 8.807879e-01 	 8.240419e-01 	  7.672959e-01 	 4.779407e+00
7.982040e+01 	 8.286890e-01 	 7.718567e-01 	  7.150244e-01 	 4.469936e+00
7.184038e+01 	 7.504322e-01 	 6.934932e-01 	  6.365543e-01 	 4.008601e+00
6.465817e+01 	 6.522538e-01 	 5.951863e-01 	  5.381188e-01 	 3.432606e+00
5.819399e+01 	 5.492508e-01 	 4.920316e-01 	  4.348123e-01 	 2.830160e+00
5.237607e+01 	 4.619834e-01 	 4.045892e-01 	  3.471951e-01 	 2.320100e+00
4.713979e+01 	 4.027550e-01 	 3.451646e-01 	  2.875742e-01 	 1.972587e+00
4.242700e+01 	 3.667834e-01 	 3.089805e-01 	  2.511776e-01 	 1.759307e+00
3.818538e+01 	 3.486920e-01 	 2.906701e-01 	  2.326482e-01 	 1.648802e+00
3.436781e+01 	 3.397222e-01 	 2.814908e-01 	  2.232595e-01 	 1.590990e+00
3.093190e+01 	 3.105602e-01 	 2.521527e-01 	  1.937452e-01 	 1.420872e+00
2.783950e+01 	 2.704568e-01 	 2.119376e-01 	  1.534184e-01 	 1.191982e+00
2.505625e+01 	 2.617319e-01 	 2.032013e-01 	  1.446707e-01 	 1.142624e+00
2.255126e+01 	 2.433611e-01 	 1.849512e-01 	  1.265414e-01 	 1.042152e+00
2.029671e+01 	 2.212438e-01 	 1.631004e-01 	  1.049570e-01 	 9.232396e-01
1.826755e+01 	 1.881976e-01 	 1.304412e-01 	  7.268493e-02 	 7.433193e-01
1.644126e+01 	 1.338319e-01 	 7.650048e-02 	  1.916903e-02 	 4.391685e-01
1.479755e+01 	 1.203659e-01 	 6.334944e-02 	  6.333013e-03 	 3.656813e-01
1.331817e+01 	 1.202374e-01 	 6.323445e-02 	  6.231549e-03 	 3.651041e-01
1.198669e+01 	 1.068431e-01 	 4.938285e-02 	  0.000000e+00 	 2.828581e-01
1.078833e+01 	 9.178928e-02 	 3.338098e-02 	  0.000000e+00 	 1.880981e-01
9.709767e+00 	 9.140126e-02 	 3.184259e-02 	  0.000000e+00 	 1.759638e-01
8.739037e+00 	 8.082787e-02 	 2.050620e-02 	  0.000000e+00 	 1.118850e-01
7.865355e+00 	 6.361669e-02 	 3.326579e-03 	  0.000000e+00 	 1.815983e-02
7.079019e+00 	 7.205096e-02 	 1.220977e-02 	  0.000000e+00 	 6.715326e-02
6.371296e+00 	 7.083650e-02 	 1.122345e-02 	  0.000000e+00 	 6.196479e-02
5.734328e+00 	 7.400542e-02 	 1.498349e-02 	  0.000000e+00 	 8.355251e-02
5.161041e+00 	 7.180085e-02 	 1.472339e-02 	  0.000000e+00 	 8.489907e-02
4.645068e+00 	 5.764501e-02 	 1.865079e-03 	  0.000000e+00 	 1.100473e-02
4.180679e+00 	 6.741143e-02 	 9.961355e-03 	  0.000000e+00 	 5.706735e-02
3.762717e+00 	 7.209356e-02 	 1.171392e-02 	  0.000000e+00 	 6.385161e-02
3.386540e+00 	 7.933252e-02 	 1.369572e-02 	  0.000000e+00 	 6.867480e-02
3.047972e+00 	 7.796066e-02 	 1.366262e-02 	  0.000000e+00 	 6.993524e-02
2.743252e+00 	 7.608707e-02 	 1.452571e-02 	  0.000000e+00 	 7.765853e-02
2.468997e+00 	 7.455912e-02 	 1.211239e-02 	  0.000000e+00 	 6.383814e-02
2.222160e+00 	 6.699148e-02 	 6.320351e-03 	  0.000000e+00 	 3.428617e-02
2.000000e+00 	 6.699148e-02 	 6.320351e-03 	  0.000000e+00 	 0.000000e+00
 
FIC-2101~FI-2005  
  FreqPeriod(min) 	 Unc_UB 	 Bode 	 Unc_LB 	 S/N_Ratio
1.000000e+03 	 6.572595e-01 	 5.991851e-01 	  5.411107e-01 	 2.118092e+00
9.000254e+02 	 6.565242e-01 	 5.984498e-01 	  5.403754e-01 	 2.242020e+00
8.100456e+02 	 6.556121e-01 	 5.975377e-01 	  5.394633e-01 	 2.372203e+00
7.290616e+02 	 6.544793e-01 	 5.964050e-01 	  5.383306e-01 	 2.506300e+00
6.561739e+02 	 6.530711e-01 	 5.949967e-01 	  5.369223e-01 	 2.641395e+00
5.905732e+02 	 6.513179e-01 	 5.932435e-01 	  5.351691e-01 	 2.774060e+00
5.315308e+02 	 6.491317e-01 	 5.910573e-01 	  5.329829e-01 	 2.900456e+00
4.783912e+02 	 6.464010e-01 	 5.883266e-01 	  5.302522e-01 	 3.016470e+00
4.305642e+02 	 6.429836e-01 	 5.849092e-01 	  5.268348e-01 	 3.117870e+00
3.875187e+02 	 6.386985e-01 	 5.806242e-01 	  5.225498e-01 	 3.200434e+00
3.487767e+02 	 6.333154e-01 	 5.752410e-01 	  5.171666e-01 	 3.260057e+00
3.139079e+02 	 6.252873e-01 	 5.684674e-01 	  5.116475e-01 	 3.292798e+00
2.825250e+02 	 6.158663e-01 	 5.599349e-01 	  5.040034e-01 	 3.294892e+00
2.542797e+02 	 6.045836e-01 	 5.491854e-01 	  4.937871e-01 	 3.262743e+00
2.288582e+02 	 5.908766e-01 	 5.356616e-01 	  4.804467e-01 	 3.192963e+00
2.059782e+02 	 5.740923e-01 	 5.187092e-01 	  4.633262e-01 	 3.082528e+00
1.853856e+02 	 5.535163e-01 	 4.976044e-01 	  4.416925e-01 	 2.929138e+00
1.668517e+02 	 5.284495e-01 	 4.716303e-01 	  4.148110e-01 	 2.731909e+00
1.501708e+02 	 4.983673e-01 	 4.402356e-01 	  3.821039e-01 	 2.492482e+00
1.351575e+02 	 4.632083e-01 	 4.033231e-01 	  3.434379e-01 	 2.216632e+00
1.216452e+02 	 4.238342e-01 	 3.617091e-01 	  2.995840e-01 	 1.916250e+00
1.094837e+02 	 3.826343e-01 	 3.177276e-01 	  2.528210e-01 	 1.611112e+00
9.853815e+01 	 3.439547e-01 	 2.756594e-01 	  2.073642e-01 	 1.328442e+00
8.868683e+01 	 3.132604e-01 	 2.408933e-01 	  1.685262e-01 	 1.095579e+00
7.982040e+01 	 2.933785e-01 	 2.161681e-01 	  1.389578e-01 	 9.214593e-01
